2
-1.14 0.0769231
-1.13385 0.0505495
-1.13077 0.0373626
-1.12769 0.0241758
-1.12154 -0.0021978
-1.11762 0.0910931
-1.11538 -0.0285714
-1.10596 -0.0477273
-1.09654 -0.0668831
-1.09524 0.105263
-1.08712 -0.086039
-1.079 0.0968045
-1.07769 -0.105195
-1.06827 -0.124351
-1.06277 0.0883459
-1.05885 -0.143506
-1.04942 -0.162662
-1.04654 0.0798872
-1.04 -0.181818
-1.0325 -0.191883
-1.0303 0.0714286
-1.025 -0.201948
-1.02131 0.0555556
-1.01231 0.0396825
-1.01 -0.222078
-1.00331 0.0238095
-0.995 -0.242208
-0.994318 0.00793651
-0.985322 -0.00793651
-0.98 -0.262338
-0.976326 -0.0238095
-0.96733 -0.0396825
-0.965 -0.282468
-0.958333 -0.0555556
-0.95 -0.302597
-0.938447 -0.0763889
-0.935 -0.322727
-0.92 -0.342857
-0.918561 -0.0972222
-0.918243 -0.355703
-0.916486 -0.368548
-0.912973 -0.39424
-0.909459 -0.419931
-0.908617 -0.107639
-0.905946 -0.445622
-0.902432 -0.471313
-0.898919 -0.497005
-0.898674 -0.118056
-0.897162 -0.50985
-0.895405 -0.522696
-0.893649 -0.535541
-0.891892 -0.548387
-0.890982 -0.568548
-0.890073 -0.58871
-0.889163 -0.608871
-0.888254 -0.629032
-0.887344 -0.649194
-0.886435 -0.669355
-0.885525 -0.689516
-0.884615 -0.709677
-0.878788 -0.138889
-0.867042 -0.709073
-0.85368 -0.138889
-0.849469 -0.708468
-0.831897 -0.707863
-0.828571 -0.138889
-0.823529 0.387097
-0.822151 0.3704
-0.821283 0.40209
-0.820772 0.353703
-0.819393 0.337006
-0.819036 0.417083
-0.818015 0.320309
-0.816789 0.432076
-0.816636 0.303612
-0.815257 0.286915
-0.814542 0.44707
-0.814324 -0.707258
-0.813879 0.270218
-0.8125 0.253521
-0.812296 0.462063
-0.810823 -0.125595
-0.810049 0.477056
-0.809622 0.234331
-0.807802 0.492049
-0.806743 0.215141
-0.805556 0.507042
-0.803865 0.195951
-0.800987 0.176761
-0.798109 0.15757
-0.796751 -0.706653
-0.79523 0.13838
-0.793074 -0.112302
-0.792352 0.11919
-0.789474 0.1
-0.787393 0.508623
-0.785486 0.0767857
-0.781499 0.0535714
-0.779178 -0.706048
-0.777512 0.0303571
-0.775325 -0.0990079
-0.773525 0.00714286
-0.769537 -0.0160714
-0.769231 0.510204
-0.76555 -0.0392857
-0.761605 -0.705444
-0.761563 -0.0625
-0.760256 0.49932
-0.757576 -0.0857143
-0.751282 0.488435
-0.744032 -0.704839
-0.733333 0.466667
-0.727193 0.44537
-0.726459 -0.704234
-0.721053 0.424074
-0.714912 0.402778
-0.708886 -0.703629
-0.708772 0.381481
-0.702632 0.360185
-0.699561 0.349537
-0.696491 0.338889
-0.692308 0.28
-0.691313 -0.703024
-0.690351 0.317593
-0.684211 0.296296
-0.683355 0.257097
-0.674403 0.234194
-0.67374 -0.702419
-0.669927 0.222742
-0.665451 0.21129
-0.660975 0.199839
-0.656499 0.188387
-0.656167 -0.701815
-0.647546 0.165484
-0.638594 -0.70121
-0.638594 0.142581
-0.629642 0.119677
-0.62069 0.0967742
-0.603448 -0.7
-0.600133 0.0943198
-0.596817 -0.675862
-0.593501 -0.663793
-0.590186 -0.651724
-0.583554 -0.627586
-0.579576 0.0918654
-0.576923 -0.603448
-0.562099 -0.585309
-0.559019 0.0894109
-0.554688 -0.576239
-0.547276 -0.56717
-0.538462 0.0869565
-0.538141 0.0999041
-0.537821 0.112852
-0.5375 0.125799
-0.537179 0.138747
-0.536538 0.164642
-0.535897 0.190537
-0.535256 0.216432
-0.534615 0.242327
-0.534295 0.255275
-0.533974 0.268223
-0.533654 0.28117
-0.533333 0.294118
-0.532843 0.313603
-0.532452 -0.54903
-0.532353 0.333088
-0.531863 0.352574
-0.531373 0.372059
-0.530882 0.391544
-0.530392 0.411029
-0.529902 0.430515
-0.529412 0.45
-0.517628 -0.530891
-0.511642 0.470833
-0.502804 -0.512751
-0.502757 0.48125
-0.495393 -0.503682
-0.493873 0.491667
-0.487981 -0.494612
-0.476103 0.5125
-0.473157 -0.476473
-0.458333 -0.458333
-0.458333 0.533333
-0.444111 -0.453125
-0.440524 0.530435
-0.429888 -0.447917
-0.422715 0.527536
-0.409091 0.0666667
-0.408523 0.0839286
-0.407955 0.10119
-0.407386 0.118452
-0.406818 0.135714
-0.40625 0.152976
-0.405682 0.170238
-0.405114 0.1875
-0.404906 0.524638
-0.404545 0.204762
-0.403977 0.222024
-0.403409 0.239286
-0.402841 0.256548
-0.402273 0.27381
-0.401442 -0.4375
-0.401136 0.308333
-0.400568 0.0467949
-0.400568 0.325595
-0.4 0.342857
-0.398387 0.365217
-0.396774 0.387578
-0.395161 0.409938
-0.393548 0.432298
-0.392045 0.0269231
-0.391935 0.454658
-0.390323 0.477019
-0.38871 0.499379
-0.387903 0.510559
-0.38722 -0.432292
-0.387097 0.521739
-0.383523 0.00705128
-0.375 -0.0128205
-0.372997 -0.427083
-0.358774 -0.421875
-0.354167 -0.00801282
-0.344551 -0.416667
-0.333333 -0.00320513
-0.330329 -0.411458
-0.316106 -0.40625
-0.3125 0.00160256
-0.301883 -0.401042
-0.291667 0.00641026
-0.28766 -0.395833
-0.286898 0.030609
-0.28213 0.0548077
-0.277362 0.0790064
-0.273438 -0.390625
-0.272594 0.103205
-0.267826 0.127404
-0.263058 0.151603
-0.260673 0.163702
-0.259215 -0.385417
-0.258289 0.175801
-0.255905 0.187901
-0.253521 0.2
-0.251565 0.219758
-0.249609 0.239516
-0.247653 0.259274
-0.245696 0.279032
-0.244992 -0.380208
-0.24374 0.29879
-0.241784 0.318548
-0.239828 0.338306
-0.237872 0.358065
-0.235915 0.377823
-0.233959 0.397581
-0.232003 0.417339
-0.230769 -0.375
-0.230047 0.437097
-0.228091 0.456855
-0.227273 -0.16129
-0.226135 0.476613
-0.224178 0.496371
-0.222222 0.516129
-0.218299 -0.365767
-0.218074 -0.142396
-0.209928 -0.166422
-0.208874 -0.123502
-0.205829 -0.356534
-0.202381 0.534156
-0.199675 -0.104608
-0.193359 -0.347301
-0.192584 -0.171554
-0.19246 0.543169
-0.190476 -0.0857143
-0.186828 -0.0706897
-0.18318 -0.055665
-0.18254 0.552182
-0.180889 -0.338068
-0.179531 -0.0406404
-0.175883 -0.0256158
-0.175239 -0.176686
-0.168587 0.0044335
-0.168419 -0.328835
-0.162698 0.570209
-0.16129 0.0344828
-0.157895 -0.181818
-0.157258 0.0508461
-0.15595 -0.319602
-0.153226 0.0672095
-0.152778 0.579222
-0.147086 -0.166035
-0.145161 0.0999361
-0.14348 -0.310369
-0.142857 0.588235
-0.141129 0.116299
-0.137097 0.132663
-0.136278 -0.150253
-0.133065 0.149026
-0.132812 0.581112
-0.13101 -0.301136
-0.129032 0.16539
-0.12547 -0.13447
-0.122768 0.573989
-0.120968 0.198116
-0.11854 -0.291903
-0.116935 0.21448
-0.114662 -0.118687
-0.112903 0.230843
-0.10607 -0.28267
-0.104839 0.26357
-0.103853 -0.102904
-0.102679 0.559743
-0.100806 0.279933
-0.0967742 0.296296
-0.0935998 -0.273438
-0.0930451 -0.0871212
-0.0924899 0.325666
-0.0903478 0.34035
-0.0882056 0.355035
-0.0839214 0.384404
-0.0825893 0.545496
-0.0822368 -0.0713384
-0.0811298 -0.264205
-0.0796371 0.413773
-0.077495 0.428458
-0.0753528 0.443142
-0.0714286 -0.0555556
-0.0710685 0.472512
-0.0686599 -0.254972
-0.0667843 0.501881
-0.0655754 -0.0413075
-0.0625 0.53125
-0.0597222 -0.0270594
-0.0561899 -0.245739
-0.053869 -0.0128113
-0.0480159 0.00143678
-0.04372 -0.236506
-0.0421627 0.0156849
-0.0363095 0.029933
-0.03125 -0.227273
-0.0304563 0.044181
-0.0246032 0.0584291
-0.015439 -0.204816
-0.0128968 0.0869253
-0.00704365 0.101173
-0.00119048 0.115421
0.000372024 -0.182359
0.0046627 0.12967
0.0105159 0.143918
0.016183 -0.159903
0.016369 0.158166
0.0222222 0.172414
0.031994 -0.137446
0.0361111 0.193719
0.0478051 -0.114989
0.05 0.215025
0.0636161 -0.0925325
0.0638889 0.23633
0.0777778 0.257635
0.0794271 -0.0700758
0.0916667 0.278941
0.0952381 -0.047619
0.105131 -0.0336134
0.105556 0.300246
0.115023 -0.0196078
0.119444 0.321552
0.124916 -0.00560224
0.133333 0.342857
0.134809 0.00840336
0.144702 0.022409
0.154594 0.0364146
0.155556 0.33609
0.164487 0.0504202
0.17438 0.0644258
0.177778 0.329323
0.184272 0.0784314
0.194165 0.092437
0.2 0.322556
0.204058 0.106443
0.21395 0.120448
0.222222 0.315789
0.226135 0.298375
0.230047 0.28096
0.233736 0.148459
0.233959 0.263545
0.237872 0.24613
0.243628 0.162465
0.245696 0.2113
0.249609 0.193885
0.253521 0.176471
